epoch,value
1659702810.371,26
1659702820.368,36
1659702830.368,46
1659702840.371,52
1659702850.374,57
1659702860.368,102
1659702870.368,122
1659702880.374,129
1659702890.368,170
1659702900.368,177
1659702910.368,185
1659702920.368,191
1659702930.368,197
1659702940.368,207
1659702950.368,213
1659702960.368,217
1659702970.372,230
1659702980.368,238
1659702990.367,255
1659703000.369,261
1659703010.367,275
1659703020.367,290
1659703030.369,305
1659703040.367,315
1659703050.368,319
1659703060.368,334
1659703070.368,343
1659703080.367,414
1659703090.368,430
1659703100.369,467
1659703110.368,473
1659703120.369,482
1659703130.368,509
1659703140.368,532
1659703150.368,545
1659703160.367,552
1659703170.368,572
1659703180.368,591
1659703190.370,598
1659703200.369,603
1659703210.374,608
1659703220.367,616
1659703230.367,626
1659703240.369,636
1659703250.367,644
1659703260.367,658
1659703270.368,666
1659703280.367,677
1659703290.368,689
1659703300.368,701
1659703310.368,709
1659703320.368,714
1659703330.368,721
1659703340.368,733
1659703350.368,749
1659703360.368,755
1659703370.367,765
1659703380.367,769
1659703390.368,782
1659703400.368,794
1659703410.368,805
1659703420.368,813
1659703430.368,836
1659703440.368,840
1659703450.372,847
1659703460.368,859
1659703470.367,871
1659703480.369,876
1659703490.368,886
1659703500.368,891
1659703510.368,896
1659703520.368,900
1659703530.368,906
1659703540.368,909
1659703550.368,912
1659703560.368,917
1659703570.368,929
1659703580.368,939
1659703590.369,941
1659703600.368,950
1659703610.367,956
1659703620.368,966
1659703630.369,972
1659703640.368,983
1659703650.368,989
1659703660.368,1004
1659703670.368,1007
1659703680.368,1011
1659703690.368,1022
1659703700.368,1033
1659703710.368,1039
1659703720.368,1046
1659703730.367,1053
1659703740.368,1060
1659703750.368,1067
1659703760.368,1074
1659703770.367,1081
1659703780.373,1093
1659703790.368,1105
1659703800.368,1117
1659703810.368,1126
1659703820.368,1130
1659703830.368,1139
1659703840.368,1145
1659703850.365,1151
1659703860.368,1154
1659703870.368,1160
1659703880.368,1167
1659703890.368,1175
1659703900.368,1181
1659703910.368,1186
1659703920.368,1192
1659703930.368,1197
1659703940.367,1208
1659703950.368,1214
1659703960.368,1220
1659703970.371,1241
1659703980.368,1257
1659703990.368,1267
1659704000.368,1271
1659704010.368,1280
1659704020.368,1296
1659704030.367,1304
1659704040.367,1311
1659704050.368,1317
1659704060.368,1325
1659704070.368,1331
1659704080.368,1340
1659704090.368,1349
1659704100.367,1356
1659704110.368,1363
1659704120.368,1370
1659704130.369,1379
1659704140.368,1404
1659704150.368,1408
1659704160.367,1420
1659704170.368,1426
1659704180.368,1441
1659704190.368,1448
1659704200.368,1455
1659704210.368,1465
1659704220.368,1471
1659704230.368,1478
1659704240.368,1485
1659704250.368,1493
1659704260.368,1503
1659704270.368,1510
1659704280.368,1518
1659704290.368,1525
1659704300.368,1538
1659704310.369,1559
1659704320.369,1574
1659704330.367,1583
1659704340.367,1594
1659704350.368,1603
1659704360.368,1606
1659704370.368,1614
1659704380.368,1629
1659704390.367,1641
1659704400.368,1661
1659704410.368,1668
1659704420.368,1679
1659704430.368,1685
1659704440.368,1695
1659704450.367,1701
1659704460.368,1709
1659704470.368,1717
1659704480.369,1735
1659704490.368,1741
1659704500.368,1752
1659704510.367,1758
1659704520.367,1773
1659704530.365,1781
1659704540.367,1797
1659704550.368,1810
1659704560.368,1822
1659704570.368,1833
1659704580.368,1840
1659704590.371,1850
1659704600.367,1857
1659704610.368,1861
1659704620.368,1880
1659704630.368,1887
1659704640.368,1896
1659704650.367,1908
1659704660.368,1917
1659704670.367,1923
1659704680.368,1936
1659704690.368,1946
1659704700.368,1959
1659704710.368,1974
1659704720.368,1990
1659704730.368,1996
1659704740.368,2002
1659704750.367,2012
1659704760.368,2025
1659704770.368,2033
1659704780.368,2049
1659704790.368,2056
1659704800.368,2067
1659704810.368,2072
1659704820.369,2082
1659704830.368,2091
1659704840.368,2100
1659704850.368,2106
1659704860.368,2114
1659704870.369,2124
1659704880.369,2135
1659704890.368,2146
1659704900.368,2159
1659704910.368,2168
1659704920.368,2176
1659704930.368,2184
1659704940.369,2198
1659704950.368,2207
1659704960.368,2217
1659704970.367,2225
1659704980.368,2238
1659704990.368,2242
1659705000.368,2266
1659705010.368,2309
1659705020.368,2362
1659705030.368,2365
1659705040.368,2373
1659705050.368,2382
1659705060.367,2392
1659705070.368,2403
1659705080.368,2411
1659705090.368,2421
1659705100.368,2446
1659705110.368,2451
1659705120.368,2463
1659705130.367,2468
1659705140.368,2481
1659705150.368,2488
1659705160.368,2490
1659705170.367,2495
1659705180.369,2501
1659705190.368,2509
1659705200.369,2522
1659705210.368,2542
1659705220.368,2548
1659705230.368,2553
1659705240.368,2558
1659705250.367,2563
1659705260.367,2570
1659705270.367,2579
1659705280.368,2590
1659705290.368,2594
1659705300.369,2608
1659705310.368,2624
1659705320.369,2638
1659705330.369,2645
1659705340.368,2660
1659705350.368,2664
1659705360.369,2684
1659705370.367,2694
1659705380.368,2705
1659705390.368,2714
1659705400.368,2726
1659705410.368,2735
1659705420.368,2746
1659705430.368,2750
1659705440.368,2755
1659705450.368,2759
1659705460.368,2782
1659705470.367,2791
1659705480.368,2801
1659705490.368,2804
1659705500.368,2810
1659705510.368,2818
1659705520.368,2822
1659705530.367,2829
1659705540.368,2839
1659705550.368,2846
1659705560.368,2854
1659705570.365,2863
1659705580.368,2874
1659705590.368,2880
1659705600.368,2885
1659705610.368,2897
1659705620.367,2907
1659705630.368,2929
1659705640.368,2936
1659705650.368,2946
1659705660.367,2956
1659705670.368,2963
1659705680.368,2969
1659705690.368,2976
1659705700.368,2996
1659705710.368,3006
1659705720.368,3012
1659705730.368,3022
1659705740.367,3036
1659705750.368,3044
1659705760.368,3053
1659705770.368,3057
1659705780.368,3064
1659705790.368,3072
1659705800.368,3086
1659705810.368,3093
1659705820.368,3102
1659705830.368,3115
1659705840.368,3121
1659705850.368,3128
1659705860.368,3144
1659705870.368,3156
1659705880.368,3164
1659705890.368,3169
1659705900.368,3177
1659705910.368,3190
1659705920.368,3198
1659705930.368,3208
1659705940.370,3218
1659705950.369,3227
1659705960.369,3239
1659705970.368,3248
1659705980.368,3256
1659705990.368,3268
1659706000.368,3275
1659706010.370,3283
1659706020.368,3304
1659706030.368,3310
1659706040.368,3318
1659706050.368,3325
1659706060.368,3339
1659706070.366,3346
1659706080.368,3356
1659706090.368,3366
1659706100.368,3378
1659706110.368,3390
1659706120.368,3400
1659706130.367,3403
1659706140.368,3425
1659706150.369,3435
1659706160.368,3444
1659706170.368,3449
1659706180.368,3455
1659706190.368,3464
1659706200.368,3468
1659706210.368,3480
1659706220.368,3497
1659706230.371,3505
1659706240.365,3515
1659706250.368,3521
1659706260.368,3533
1659706270.368,3539
1659706280.368,3543
1659706290.368,3553
1659706300.368,3566
1659706310.367,3574
1659706320.367,3581
1659706330.368,3591
1659706340.368,3600
1659706350.367,3609
1659706360.368,3612
1659706370.368,3622
1659706380.368,3633
1659706390.368,3640
1659706400.368,3653
1659706410.368,3659
1659706420.368,3669
1659706430.368,3673
1659706440.367,3678
1659706450.368,3687
1659706460.371,3697
1659706470.369,3737
1659706480.368,3797
1659706490.369,3806
1659706500.368,3823
1659706510.367,3830
1659706520.367,3843
1659706530.368,3850
1659706540.368,3862
1659706550.368,3872
1659706560.368,3885
1659706570.368,3893
1659706580.369,3914
1659706590.368,3927
1659706600.369,3936
1659706610.368,3946
1659706620.369,3956
1659706630.368,3965
1659706640.368,3973
1659706650.368,3980
1659706660.369,3992
1659706670.368,4004
1659706680.368,4016
1659706690.368,4022
1659706700.369,4031
1659706710.368,4037
1659706720.368,4043
1659706730.368,4051
1659706740.368,4062
1659706750.368,4069
1659706760.368,4079
1659706770.368,4087
1659706780.368,4100
1659706790.368,4104
1659706800.368,4108
1659706810.369,4112
1659706820.368,4127
1659706830.368,4146
1659706840.368,4155
1659706850.369,4163
1659706860.368,4176
1659706870.368,4180
1659706880.368,4185
1659706890.368,4192
1659706900.368,4206
1659706910.368,4212
1659706920.368,4219
1659706930.368,4226
1659706940.368,4241
1659706950.368,4252
1659706960.368,4259
1659706970.368,4269
1659706980.369,4282
1659706990.368,4287
1659707000.368,4292
1659707010.368,4301
1659707020.368,4313
1659707030.368,4315
1659707040.368,4323
1659707050.368,4335
1659707060.368,4341
1659707070.368,4347
1659707080.368,4352
1659707090.368,4361
1659707100.367,4371
1659707110.367,4379
1659707120.368,4387
1659707130.368,4389
1659707140.368,4398
1659707150.368,4406
1659707160.368,4415
1659707170.368,4420
1659707180.367,4426
1659707190.368,4435
1659707200.368,4446
1659707210.367,4510
1659707220.368,4522
1659707230.368,4530
1659707240.367,4543
1659707250.368,4549
1659707260.368,4557
1659707270.368,4569
1659707280.368,4571
1659707290.368,4576
1659707300.368,4583
1659707310.365,4644
1659707320.368,4662
1659707330.369,4680
1659707340.368,4685
1659707350.368,4692
1659707360.368,4700
1659707370.368,4716
1659707380.367,4723
1659707390.368,4729
1659707400.368,4737
1659707410.370,4752
1659707420.368,4776
1659707430.369,4794
1659707440.368,4814
1659707450.369,4830
1659707460.369,4858
1659707470.368,4881
1659707480.368,4892
1659707490.369,4918
1659707500.368,4927
1659707510.369,4945
1659707520.369,4962
1659707530.368,4982
1659707540.368,4995
1659707550.367,5011
1659707560.368,5023
1659707570.368,5031
1659707580.368,5039
1659707590.367,5048
1659707600.367,5061
1659707610.368,5068
1659707620.368,5076
1659707630.367,5096
1659707640.368,5104
1659707650.368,5113
1659707660.368,5122
1659707670.368,5127
1659707680.368,5134
1659707690.368,5152
1659707700.367,5165
1659707710.368,5175
1659707720.368,5181
1659707730.367,5200
1659707740.367,5211
1659707750.367,5222
1659707760.367,5228
1659707770.368,5241
1659707780.368,5250
1659707790.368,5258
1659707800.368,5272
1659707810.368,5279
1659707820.368,5290
1659707830.368,5299
1659707840.368,5308
1659707850.367,5320
1659707860.368,5328
1659707870.368,5333
